X,Y,Z,Psi,Theta
0.762927,1.92886,0.806422,0.0577133,0.0775348
0.762014,1.92615,0.819995,0.0576922,0.077758
0.761102,1.92343,0.833569,0.0576711,0.0779813
0.760209,1.92075,0.846855,0.0575949,0.0781824
0.759317,1.91806,0.860141,0.0575187,0.0783835
0.758465,1.91544,0.872851,0.0573322,0.0785405
0.757612,1.91283,0.885562,0.0571458,0.0786976
0.75682,1.91031,0.89741,0.0567941,0.0787884
0.756028,1.90778,0.909258,0.0564423,0.0788792
0.755316,1.90539,0.919956,0.0558701,0.0788818
0.754603,1.903,0.930653,0.055298,0.0788843
0.753931,1.90068,0.940776,0.0546156,0.0788428
0.753259,1.89835,0.950898,0.0539332,0.0788012
0.752635,1.89583,0.960482,0.0529916,0.0785949
0.752011,1.89331,0.970065,0.05205,0.0783886
0.751371,1.89063,0.979954,0.051089,0.0781441
0.750731,1.88795,0.989843,0.050128,0.0778996
0.750059,1.88495,1.00034,0.0491283,0.0775786
0.749388,1.88195,1.01084,0.0481285,0.0772577
0.7487,1.87878,1.02165,0.0471094,0.0768985
0.748012,1.87562,1.03245,0.0460903,0.0765393
0.747394,1.87257,1.04232,0.0453432,0.076177
0.746776,1.86951,1.05219,0.0445961,0.0758148
0.746208,1.86667,1.06128,0.0440043,0.0754892
0.745641,1.86383,1.07038,0.0434126,0.0751636
0.745175,1.86142,1.07792,0.0431317,0.0749114
0.744709,1.85901,1.08546,0.0428507,0.0746593
0.744292,1.85675,1.09235,0.0429556,0.0744782
0.743875,1.8545,1.09923,0.0430604,0.0742972
0.743454,1.85212,1.10635,0.043626,0.074185
0.743034,1.84974,1.11347,0.0441916,0.0740728
0.742557,1.84696,1.1217,0.0452929,0.0740273
0.742054,1.84401,1.13044,0.0465469,0.0739978
0.741496,1.84073,1.14019,0.0481063,0.0740005
0.740911,1.83727,1.15044,0.0498183,0.0740193
0.740264,1.83334,1.16199,0.0519604,0.0740673
0.739617,1.8294,1.17353,0.0541024,0.0741152
0.738953,1.82518,1.18567,0.0564939,0.0741572
0.73829,1.82097,1.19781,0.0588853,0.0741992
0.737656,1.81667,1.20982,0.0613454,0.0742001
0.737022,1.81236,1.22184,0.0638055,0.074201
0.736464,1.80818,1.23302,0.0661536,0.0741256
0.735906,1.80399,1.2442,0.0685017,0.0740502
0.735387,1.79986,1.25496,0.0707938,0.0739366
0.734867,1.79573,1.26573,0.0730859,0.0738231
0.734422,1.79181,1.27584,0.0756417,0.0737628
0.733977,1.78789,1.28596,0.0781974,0.0737025
0.733532,1.78397,1.29607,0.0807532,0.0736422
0.733087,1.78005,1.30619,0.083309,0.0735819
0.73264,1.77632,1.31668,0.0866162,0.0737808
0.732193,1.77259,1.32716,0.0899234,0.0739796
0.731772,1.76892,1.33737,0.0931695,0.0741337
0.731351,1.76524,1.34757,0.0964157,0.0742878
0.730983,1.76167,1.3572,0.0995398,0.0743525
0.730615,1.7581,1.36684,0.102664,0.0744171
0.730327,1.75464,1.37553,0.105417,0.0742828
0.730038,1.75117,1.38421,0.10817,0.0741484
0.729856,1.74782,1.39158,0.110304,0.0737056
0.729674,1.74448,1.39895,0.112438,0.0732628
0.729574,1.74098,1.40591,0.11426,0.0725396
0.729474,1.73749,1.41287,0.116082,0.0718164
0.729433,1.7336,1.42035,0.1179,0.0708409
0.729391,1.72971,1.42783,0.119719,0.0698655
0.729384,1.72516,1.43674,0.121843,0.0686659
0.729379,1.72038,1.44623,0.12412,0.0674172
0.729379,1.71515,1.45691,0.126704,0.0660706
0.729381,1.70969,1.46817,0.129441,0.0646749
0.729477,1.70324,1.48089,0.132526,0.0630931
0.729572,1.6968,1.49361,0.13561,0.0615113
0.729844,1.68931,1.50688,0.138777,0.0597533
0.730115,1.68182,1.52016,0.141943,0.0579954
0.730645,1.67321,1.53309,0.144925,0.0560711
0.731175,1.66461,1.54603,0.147907,0.0541469
0.732047,1.65482,1.55772,0.15044,0.0520664
0.732918,1.64503,1.56942,0.152972,0.0499858
0.734003,1.63476,1.57989,0.155123,0.0479032
0.735087,1.62449,1.59037,0.157274,0.0458205
0.736255,1.61444,1.59963,0.159111,0.0438899
0.737424,1.60439,1.6089,0.160949,0.0419594
0.738547,1.59526,1.61697,0.162543,0.0403351
0.739627,1.58654,1.62475,0.164092,0.038826
0.740621,1.57863,1.63194,0.165553,0.0375471
0.74157,1.57113,1.63883,0.16697,0.0363834
0.74242,1.56462,1.64527,0.168229,0.0356202
0.743269,1.55812,1.65172,0.169489,0.034857
0.744091,1.55198,1.65843,0.170608,0.0344343
0.744914,1.54584,1.66514,0.171727,0.0340116
0.745782,1.53944,1.67285,0.172724,0.0338695
0.746651,1.53305,1.68056,0.173722,0.0337274
0.747638,1.52576,1.68999,0.174615,0.0338059
0.748626,1.51848,1.69942,0.175508,0.0338844
0.749639,1.51097,1.70959,0.17625,0.0341281
0.750653,1.50347,1.71976,0.176991,0.0343719
0.751598,1.49642,1.7297,0.177532,0.0347258
0.752542,1.48936,1.73963,0.178073,0.0350797
0.753325,1.48343,1.74836,0.178366,0.0354883
0.754043,1.47794,1.75653,0.178584,0.0358969
0.754633,1.47334,1.76361,0.178654,0.0363053
0.75516,1.46919,1.77013,0.17865,0.0367135
0.755504,1.46627,1.77518,0.178328,0.0371647
0.755849,1.46334,1.78023,0.178006,0.0376159
0.756088,1.46107,1.78452,0.177344,0.0381534
0.756326,1.4588,1.78881,0.176683,0.038691
0.756533,1.45662,1.79305,0.17566,0.0393581
0.75674,1.45444,1.79729,0.174638,0.0400253
0.756991,1.45179,1.80219,0.173233,0.0408656
0.757242,1.44914,1.8071,0.171828,0.0417058
0.757515,1.44625,1.81234,0.170232,0.0426326
0.757787,1.44337,1.81758,0.168636,0.0435593
0.758025,1.44075,1.82231,0.167063,0.0444562
0.758263,1.43813,1.82704,0.165489,0.0453531
0.758462,1.43588,1.83119,0.164119,0.0461485
0.758661,1.43363,1.83533,0.162749,0.0469439
0.758781,1.43212,1.8383,0.161784,0.0475364
0.758902,1.43062,1.84128,0.160818,0.0481289
0.758983,1.42948,1.84366,0.160056,0.0486199
0.759065,1.42834,1.84605,0.159294,0.0491109
0.759127,1.42744,1.84754,0.158538,0.0495558
0.759189,1.42654,1.84904,0.157783,0.0500007
0.759281,1.42539,1.85067,0.156828,0.050524
0.759372,1.42423,1.85231,0.155873,0.0510473
0.759523,1.42257,1.85423,0.15452,0.0517274
0.759673,1.42091,1.85615,0.153166,0.0524075
0.759853,1.419,1.8582,0.151614,0.0531661
0.760033,1.41709,1.86026,0.150061,0.0539246
0.760231,1.41473,1.86285,0.147996,0.054996
0.760429,1.41238,1.86544,0.14593,0.0560675
0.760628,1.41002,1.86803,0.143864,0.0571389
0.760826,1.40767,1.87062,0.141799,0.0582104
0.760942,1.40544,1.87372,0.139504,0.059594
0.761058,1.40322,1.87681,0.137208,0.0609777
0.76117,1.40086,1.87997,0.134707,0.0625178
0.761282,1.39851,1.88314,0.132205,0.064058
0.761385,1.3959,1.88645,0.129291,0.0659113
0.761488,1.39329,1.88976,0.126377,0.0677645
0.761598,1.39027,1.89317,0.1229,0.0700093
0.761708,1.38724,1.89658,0.119424,0.0722542
0.761841,1.38365,1.90004,0.115237,0.074969
0.761974,1.38005,1.9035,0.111049,0.0776838
0.762119,1.37617,1.90698,0.106507,0.0806337
0.762264,1.37228,1.91046,0.101964,0.0835835
0.762283,1.36856,1.91426,0.0968194,0.0871146
0.762302,1.36485,1.91806,0.0916752,0.0906457
0.762247,1.3615,1.92201,0.0865858,0.0942324
0.762192,1.35815,1.92595,0.0814964,0.0978191
0.761988,1.35554,1.93016,0.0765167,0.101517
0.761784,1.35293,1.93438,0.0715369,0.105215
0.761408,1.35117,1.93909,0.0665713,0.109011
0.761032,1.3494,1.9438,0.0616058,0.112806
0.760459,1.34859,1.94922,0.0565589,0.116686
0.759887,1.34777,1.95464,0.0515119,0.120567
0.759095,1.34801,1.96099,0.0462882,0.124518
0.758303,1.34825,1.96733,0.0410644,0.128469
0.757267,1.34965,1.97482,0.0355684,0.132478
0.756231,1.35105,1.98231,0.0300723,0.136487
0.755015,1.35329,1.99058,0.0242099,0.140589
0.7538,1.35553,1.99885,0.0183475,0.14469
0.752469,1.35831,2.00754,0.0120249,0.148921
0.751138,1.36109,2.01624,0.00570228,0.153151
0.749755,1.36409,2.02499,-0.00117457,0.157546
0.748372,1.36709,2.03375,-0.00805141,0.16194
0.747001,1.36999,2.04221,-0.0155764,0.166534
0.745631,1.37289,2.05067,-0.0231015,0.171128
0.744324,1.37562,2.05857,-0.030809,0.17569
0.743016,1.37835,2.06648,-0.0385166,0.180253
0.741823,1.38082,2.07357,-0.0459411,0.184555
0.74063,1.38329,2.08067,-0.0533656,0.188856
0.739603,1.38541,2.0867,-0.0600413,0.192666
0.738575,1.38754,2.09274,-0.0667171,0.196476
0.737764,1.38924,2.09745,-0.0721784,0.199565
0.736952,1.39094,2.10217,-0.0776398,0.202653
0.736295,1.3923,2.10591,-0.0823213,0.205296
0.735638,1.39367,2.10966,-0.0870027,0.207939
0.735074,1.39479,2.11278,-0.0913387,0.210412
0.73451,1.39591,2.1159,-0.0956747,0.212885
0.733976,1.39688,2.11874,-0.1001,0.215466
0.733442,1.39784,2.12158,-0.104525,0.218046
0.732878,1.39875,2.1245,-0.109473,0.221009
0.732313,1.39965,2.12741,-0.114422,0.223972
0.731648,1.40022,2.13042,-0.119981,0.227344
0.730982,1.40078,2.13343,-0.125541,0.230716
0.730146,1.40072,2.13657,-0.1318,0.234523
0.729309,1.40065,2.13971,-0.138058,0.238329
0.728232,1.39969,2.143,-0.145104,0.242596
0.727154,1.39872,2.14629,-0.152149,0.246862
0.725766,1.39657,2.14976,-0.160069,0.251615
0.724377,1.39442,2.15323,-0.16799,0.256367
0.722654,1.39132,2.15705,-0.176362,0.261237
0.720931,1.38822,2.16086,-0.184735,0.266106
0.71885,1.3844,2.1652,-0.193137,0.270723
0.716768,1.38059,2.16953,-0.20154,0.27534
0.714305,1.37631,2.17454,-0.209551,0.279336
0.711842,1.37202,2.17955,-0.217561,0.283331
0.708973,1.3675,2.18542,-0.224757,0.286336
0.706104,1.36297,2.19128,-0.231953,0.289341
0.702939,1.35831,2.19773,-0.238361,0.291523
0.699775,1.35364,2.20419,-0.244769,0.293705
0.696424,1.34893,2.21098,-0.250415,0.295231
0.693074,1.34421,2.21778,-0.25606,0.296756
0.689648,1.33955,2.22465,-0.26097,0.297793
0.686222,1.33489,2.23153,-0.265879,0.29883
0.68283,1.33037,2.23823,-0.270079,0.299545
0.679438,1.32585,2.24494,-0.274278,0.300261
0.67614,1.32146,2.2513,-0.277824,0.300738
0.672843,1.31708,2.25767,-0.281369,0.301216
0.669702,1.31282,2.26354,-0.284317,0.301539
0.66656,1.30856,2.26942,-0.287265,0.301862
0.663635,1.30442,2.27463,-0.289672,0.302115
0.66071,1.30027,2.27984,-0.292079,0.302368
0.658061,1.29623,2.28422,-0.294,0.302635
0.655413,1.2922,2.28861,-0.295922,0.302901
0.652843,1.28792,2.29246,-0.297458,0.303194
0.650272,1.28364,2.29631,-0.298995,0.303488
0.64758,1.27879,2.2999,-0.300246,0.303821
0.644887,1.27393,2.30349,-0.301497,0.304155
0.641874,1.26815,2.30712,-0.302563,0.304542
0.63886,1.26237,2.31074,-0.303629,0.30493
0.635326,1.25533,2.31467,-0.30461,0.305384
0.631792,1.24828,2.3186,-0.305591,0.305838
0.627998,1.24061,2.32269,-0.30653,0.306326
0.624203,1.23293,2.32678,-0.307468,0.306814
0.620096,1.22453,2.33107,-0.308092,0.307191
0.615989,1.21614,2.33535,-0.308716,0.307567
0.611985,1.20802,2.33958,-0.309225,0.307855
0.607982,1.1999,2.3438,-0.309734,0.308142
0.604187,1.19233,2.3479,-0.310013,0.308251
0.600391,1.18476,2.35201,-0.310293,0.30836
0.5967,1.17746,2.35606,-0.310457,0.30838
0.593008,1.17017,2.3601,-0.310622,0.3084
0.58913,1.16286,2.36472,-0.310357,0.308029
0.585252,1.15556,2.36935,-0.310092,0.307659
0.581178,1.14798,2.37432,-0.309727,0.307183
0.577103,1.1404,2.37929,-0.309363,0.306706
0.572634,1.13227,2.38496,-0.308798,0.306018
0.568165,1.12413,2.39063,-0.308234,0.305331
0.563499,1.11572,2.39665,-0.307569,0.304537
0.558833,1.1073,2.40267,-0.306905,0.303743
0.554496,1.09931,2.40818,-0.306033,0.30292
0.55016,1.09133,2.41368,-0.30516,0.302098
0.546185,1.08383,2.41859,-0.304284,0.301367
0.542209,1.07633,2.42349,-0.303408,0.300636
0.538958,1.06981,2.42718,-0.302524,0.300088
0.535706,1.0633,2.43088,-0.30164,0.29954
0.532745,1.05686,2.43389,-0.300578,0.299064
0.529784,1.05043,2.43689,-0.299517,0.298588
0.526683,1.04318,2.43973,-0.298108,0.298075
0.523581,1.03593,2.44257,-0.296699,0.297561
0.519906,1.02696,2.44577,-0.294774,0.296899
0.51598,1.01735,2.44918,-0.292677,0.296172
0.511552,1.00643,2.45303,-0.290236,0.295315
0.506872,0.994851,2.4571,-0.287624,0.294394
0.50169,0.98197,2.46161,-0.284669,0.293343
0.496508,0.969089,2.46611,-0.281714,0.292292
0.491556,0.956222,2.47007,-0.27866,0.29129
0.486604,0.943356,2.47403,-0.275607,0.290289
0.482271,0.931803,2.47728,-0.272847,0.289442
0.478246,0.920907,2.48018,-0.270235,0.288672
0.474839,0.911323,2.48236,-0.267916,0.288057
0.471936,0.902795,2.48397,-0.265823,0.287557
0.469421,0.895063,2.48515,-0.263887,0.287135
0.467101,0.887728,2.48612,-0.26203,0.286752
0.465101,0.880951,2.48678,-0.260213,0.286371
0.463101,0.874174,2.48745,-0.258395,0.285989
0.460962,0.866919,2.48837,-0.256343,0.285456
0.458824,0.859665,2.48929,-0.254292,0.284923
0.45609,0.850898,2.49103,-0.251732,0.284084
0.453355,0.842131,2.49276,-0.249172,0.283245
0.450197,0.832159,2.49506,-0.246192,0.282165
0.447039,0.822187,2.49736,-0.243211,0.281085
0.443629,0.811316,2.49996,-0.239898,0.279828
0.440219,0.800446,2.50257,-0.236585,0.27857
0.436684,0.789127,2.50532,-0.233105,0.277224
0.433148,0.777807,2.50808,-0.229625,0.275878
0.429797,0.765919,2.51041,-0.22583,0.274434
0.426447,0.754031,2.51275,-0.222034,0.27299
0.423237,0.742271,2.51483,-0.218276,0.271583
0.420027,0.730512,2.5169,-0.214517,0.270177
0.417097,0.71901,2.51846,-0.210832,0.268846
0.414168,0.707508,2.52002,-0.207147,0.267516
0.411613,0.696534,2.52091,-0.20365,0.266324
0.409058,0.68556,2.5218,-0.200154,0.265132
0.406972,0.675385,2.52186,-0.196963,0.26414
0.404886,0.66521,2.52192,-0.193771,0.263149
0.403035,0.655435,2.52156,-0.190732,0.262258
0.401183,0.64566,2.52121,-0.187693,0.261367
0.399578,0.635651,2.52051,-0.184279,0.260467
0.397974,0.625642,2.5198,-0.180864,0.259567
0.396259,0.615116,2.51935,-0.17711,0.258561
0.394543,0.604591,2.51889,-0.173355,0.257556
0.392607,0.593033,2.51891,-0.168921,0.25634
0.39067,0.581474,2.51893,-0.164486,0.255124
0.38861,0.569062,2.51928,-0.159452,0.253755
0.38655,0.556649,2.51964,-0.154419,0.252386
0.384465,0.543559,2.52017,-0.148866,0.250923
0.382379,0.53047,2.5207,-0.143314,0.249459
0.380367,0.516882,2.52126,-0.137324,0.247959
0.378354,0.503295,2.52182,-0.131334,0.246458
0.376513,0.489387,2.52225,-0.124987,0.244978
0.374672,0.475479,2.52269,-0.118639,0.243498
0.373011,0.461037,2.52299,-0.111908,0.241986
0.37135,0.446596,2.5233,-0.105177,0.240475
0.36988,0.431407,2.52348,-0.0980344,0.23888
0.368409,0.416218,2.52365,-0.090892,0.237285
0.367139,0.400068,2.52369,-0.0833114,0.235555
0.365869,0.383918,2.52373,-0.0757307,0.233825
0.364808,0.366593,2.52362,-0.0676848,0.231907
0.363748,0.349269,2.52352,-0.0596389,0.22999
0.362898,0.330662,2.52361,-0.0510556,0.227781
0.362048,0.312055,2.5237,-0.0424723,0.225572
0.36141,0.292058,2.52431,-0.0332795,0.222969
0.360772,0.272061,2.52492,-0.0240868,0.220366
0.360347,0.250566,2.52639,-0.0142124,0.217266
0.359975,0.22867,2.52816,-0.0041497,0.214014
0.35971,0.205971,2.53052,0.00628988,0.210463
0.359498,0.18287,2.53317,0.0169179,0.206761
0.35953,0.158931,2.53681,0.0279379,0.202627
0.359561,0.134992,2.54046,0.0389578,0.198493
0.359864,0.110981,2.54488,0.0500082,0.194097
0.360167,0.0869699,2.5493,0.0610585,0.189701
0.360771,0.0636544,2.5543,0.0717775,0.185213
0.361375,0.0403389,2.5593,0.0824965,0.180725
0.36231,0.0184858,2.56468,0.0925226,0.176314
0.363244,-0.00336731,2.57006,0.102549,0.171902
0.36451,-0.0240388,2.57569,0.111992,0.167564
0.365777,-0.0447104,2.58132,0.121435,0.163225
0.367379,-0.0644812,2.58709,0.130405,0.158953
0.368981,-0.084252,2.59285,0.139375,0.154682
0.37092,-0.103403,2.59863,0.147982,0.150473
0.372859,-0.122554,2.60441,0.156589,0.146265
0.375138,-0.141366,2.61009,0.164943,0.142114
0.377417,-0.160178,2.61576,0.173297,0.137963
0.380133,-0.17908,2.62145,0.181571,0.133781
0.382849,-0.197982,2.62713,0.189846,0.129599
0.386097,-0.217404,2.63296,0.198215,0.125298
0.389346,-0.236826,2.63879,0.206584,0.120996
0.393224,-0.257198,2.64487,0.215221,0.116486
0.397102,-0.277569,2.65096,0.223858,0.111977
0.401706,-0.299319,2.65742,0.232937,0.10717
0.406309,-0.321069,2.66389,0.242016,0.102363
0.411505,-0.343607,2.67062,0.251299,0.0973944
0.4167,-0.366145,2.67734,0.260582,0.0924259
0.422354,-0.388881,2.68421,0.269831,0.0874312
0.428007,-0.411617,2.69107,0.279081,0.0824365
0.433984,-0.433959,2.69794,0.288059,0.0775508
0.439961,-0.456302,2.70482,0.297037,0.0726652
0.446128,-0.477661,2.71158,0.305506,0.0680241
0.452295,-0.499019,2.71835,0.313976,0.0633829
0.458642,-0.519498,2.72481,0.321948,0.0589656
0.464989,-0.539976,2.73127,0.32992,0.0545482
0.471507,-0.559679,2.73723,0.337406,0.0503339
0.478026,-0.579381,2.74319,0.344892,0.0461196
0.484705,-0.598411,2.74845,0.351904,0.0420877
0.491385,-0.61744,2.75371,0.358916,0.0380557
0.498218,-0.635901,2.75809,0.365465,0.0341855
0.50505,-0.654362,2.76246,0.372015,0.0303152
0.512095,-0.672444,2.76666,0.378295,0.026607
0.51914,-0.690526,2.77086,0.384576,0.0228989
0.526458,-0.708419,2.77559,0.390781,0.0193534
0.533776,-0.726312,2.78033,0.396986,0.0158079
0.541428,-0.744207,2.78631,0.40331,0.0124256
0.549178,-0.762149,2.79279,0.409712,0.00908414
0.557124,-0.780187,2.80024,0.41627,0.00582455
0.56517,-0.798274,2.80819,0.422906,0.00260587
0.573699,-0.816689,2.81737,0.429746,-0.000484595
0.582229,-0.835104,2.82655,0.436587,-0.00357506
0.591333,-0.853986,2.83623,0.443524,-0.00657277
0.600438,-0.872868,2.84591,0.450461,-0.00957048
0.610207,-0.892355,2.85535,0.457386,-0.0125109
0.619977,-0.911842,2.8648,0.464312,-0.0154513
0.630503,-0.93207,2.87328,0.471118,-0.0183698
0.641028,-0.952299,2.88176,0.477924,-0.0212884
0.651472,-0.971879,2.88922,0.48428,-0.0240036
0.661686,-0.990948,2.89641,0.49044,-0.0266227
0.67144,-1.009,2.90308,0.49621,-0.0290494
0.680526,-1.02568,2.90919,0.501506,-0.0312384
0.688733,-1.04064,2.91475,0.506246,-0.0331443
0.695852,-1.05355,2.91974,0.510346,-0.0347217
0.701675,-1.06404,2.92414,0.513725,-0.0359253
0.706439,-1.07254,2.92813,0.516511,-0.0367955
0.710383,-1.07947,2.9319,0.518835,-0.0373729
0.713918,-1.08562,2.93555,0.520927,-0.0378038
0.716768,-1.09031,2.93945,0.522614,-0.0378106
0.719619,-1.09501,2.94335,0.524301,-0.0378175
0.722741,-1.09993,2.94821,0.526101,-0.0375622
0.726169,-1.10534,2.95348,0.528059,-0.0372819
0.73021,-1.1117,2.95958,0.530333,-0.0369513
0.734771,-1.11887,2.96642,0.53279,-0.0365782
0.73976,-1.12669,2.97389,0.535298,-0.0361701
0.744962,-1.13484,2.98168,0.537831,-0.0357445
0.750648,-1.1437,2.99035,0.539933,-0.0352794
0.756334,-1.15256,2.99902,0.542035,-0.0348144
0.762133,-1.16152,3.00816,0.543175,-0.0343403
0.767931,-1.17048,3.01731,0.544314,-0.0338662
0.773471,-1.17894,3.02654,0.54396,-0.0334135
0.77901,-1.1874,3.03577,0.543606,-0.0329608
0.784038,-1.195,3.04452,0.541716,-0.0319008
0.788875,-1.2023,3.05301,0.539431,-0.0305317
0.793331,-1.209,3.06097,0.536357,-0.0285445
0.797341,-1.21501,3.06827,0.532483,-0.0257821
0.800843,-1.22023,3.07475,0.527799,-0.0220872
0.803774,-1.22459,3.08029,0.522293,-0.0173026
0.806071,-1.228,3.08473,0.515956,-0.0112712
0.807798,-1.23054,3.08821,0.508927,-0.00412727
0.80902,-1.23231,3.09088,0.501345,0.00399463
0.809802,-1.2334,3.09286,0.493352,0.0129601
0.810209,-1.2339,3.0943,0.485086,0.0226348
0.810429,-1.23411,3.09546,0.476684,0.032664
0.810157,-1.23351,3.09608,0.468297,0.0435739
0.809886,-1.23292,3.09671,0.459909,0.0544838
0.809382,-1.23188,3.09733,0.452096,0.0657366
0.808879,-1.23084,3.09796,0.444283,0.0769894
0.80826,-1.22958,3.09859,0.436756,0.0884137
0.80764,-1.22833,3.09923,0.42923,0.0998379
0.806657,-1.22639,3.10014,0.421976,0.111299
0.805673,-1.22446,3.10105,0.414722,0.122761
0.804624,-1.22242,3.10209,0.407318,0.13407
0.803574,-1.22037,3.10314,0.399913,0.145378
0.802392,-1.21809,3.10446,0.392207,0.156382
0.80121,-1.2158,3.10578,0.384501,0.167385
0.799907,-1.21332,3.10736,0.37644,0.178093
0.798603,-1.21083,3.10894,0.368378,0.188802
0.79719,-1.20817,3.11078,0.359907,0.199227
0.795777,-1.2055,3.11262,0.351435,0.209652
0.794265,-1.20269,3.1147,0.3425,0.219805
0.792753,-1.19988,3.11679,0.333564,0.229958
0.791154,-1.19695,3.11911,0.324111,0.23985
0.789555,-1.19402,3.12143,0.314657,0.249742
0.787912,-1.19104,3.12387,0.304944,0.259504
0.786269,-1.18805,3.12631,0.295231,0.269266
0.78443,-1.18501,3.12938,0.285026,0.278494
0.782591,-1.18198,3.13245,0.27482,0.287722
0.780753,-1.17894,3.13551,0.264614,0.29695
0.778914,-1.1759,3.13858,0.254408,0.306178
0.776858,-1.17301,3.14242,0.244253,0.314861
0.774802,-1.17012,3.14626,0.234098,0.323545
0.772736,-1.16732,3.15018,0.224031,0.331991
0.770669,-1.16453,3.1541,0.213963,0.340438
0.768579,-1.16191,3.15818,0.204072,0.348412
0.76649,-1.15929,3.16225,0.194181,0.356386
0.764421,-1.15692,3.16638,0.184542,0.363788
0.762351,-1.15454,3.1705,0.174902,0.371189
0.760346,-1.15246,3.17455,0.165589,0.377917
0.75834,-1.15038,3.1786,0.156277,0.384646
0.756466,-1.14861,3.18243,0.147613,0.3906
0.754591,-1.14683,3.18626,0.138948,0.396554
0.752917,-1.14537,3.18971,0.131253,0.401634
0.751242,-1.14391,3.19315,0.123558,0.406713
0.749835,-1.14277,3.19606,0.117153,0.410816
0.748513,-1.14172,3.1988,0.111152,0.41465
0.747358,-1.14083,3.20119,0.105956,0.417945
0.746287,-1.14002,3.20341,0.101162,0.42097
