X,Y,Z,Psi,Theta
0.762927,1.92886,0.806422,0.0577133,0.0775348
0.762072,1.92604,0.819295,0.0521502,0.0764815
0.761217,1.92322,0.832168,0.046587,0.0754281
0.760352,1.92029,0.845226,0.0407974,0.0742222
0.759488,1.91736,0.858283,0.0350077,0.0730162
0.758602,1.9142,0.87171,0.0287648,0.071505
0.757717,1.91104,0.885136,0.022522,0.0699939
0.7568,1.90753,0.899116,0.0155994,0.0680249
0.755884,1.90403,0.913096,0.00867676,0.0660559
0.754927,1.90007,0.927813,0.000847838,0.0634765
0.75397,1.89611,0.94253,-0.00698108,0.0608971
0.752969,1.89148,0.958066,-0.0150672,0.0577493
0.751969,1.88684,0.973602,-0.0231534,0.0546015
0.750922,1.88131,0.990037,-0.0308476,0.0509274
0.749875,1.87578,1.00647,-0.0385418,0.0472533
0.74878,1.86914,1.02389,-0.045195,0.0430949
0.747671,1.86216,1.04157,-0.0514257,0.0388259
0.746538,1.85451,1.05978,-0.0568114,0.0343359
0.745392,1.84623,1.07835,-0.0613399,0.0296712
0.744249,1.83736,1.09711,-0.0649994,0.0248784
0.743121,1.82794,1.11588,-0.0677777,0.0200041
0.742024,1.818,1.1345,-0.0696628,0.0150948
0.74097,1.80758,1.1528,-0.0706428,0.0101969
0.739975,1.79673,1.1706,-0.0707056,0.00535705
0.739051,1.78547,1.18773,-0.0698392,0.00062169
0.738212,1.77386,1.20402,-0.0680315,-0.00396264
0.737482,1.76176,1.21977,-0.0653466,-0.00848763
0.736884,1.74907,1.23526,-0.0618486,-0.013045
0.736442,1.73568,1.25079,-0.0576015,-0.0177264
0.736177,1.72146,1.26666,-0.0526694,-0.0226236
0.736114,1.7063,1.28315,-0.0471163,-0.0278282
0.736276,1.69009,1.30055,-0.0410062,-0.0334321
0.736686,1.67271,1.31918,-0.0344033,-0.0395267
0.737366,1.65404,1.3393,-0.0273715,-0.046204
0.738183,1.63474,1.36018,-0.0201254,-0.0531725
0.739372,1.61454,1.38219,-0.0125885,-0.0605098
0.740562,1.59435,1.40421,-0.00505166,-0.0678471
0.741957,1.57494,1.4255,0.00220887,-0.0747568
0.74336,1.55615,1.44613,0.00925858,-0.0813606
0.744781,1.53859,1.46547,0.0158866,-0.0873523
0.746179,1.52268,1.48303,0.0219513,-0.092533
0.747509,1.50885,1.49837,0.0273108,-0.0967035
0.748791,1.49674,1.51177,0.0320332,-0.0999467
0.75004,1.48603,1.52354,0.0361866,-0.102346
0.751273,1.47635,1.534,0.0398391,-0.103983
0.752508,1.46739,1.54344,0.0430586,-0.104941
0.753744,1.45877,1.55237,0.0460616,-0.105561
0.75505,1.45019,1.56048,0.0484711,-0.105154
0.756357,1.44161,1.5686,0.0508806,-0.104747
0.757802,1.4317,1.57711,0.0529688,-0.103646
0.759247,1.42179,1.58563,0.0550569,-0.102545
0.760784,1.41081,1.59447,0.0566716,-0.100692
0.76232,1.39983,1.6033,0.0582863,-0.098839
0.763901,1.38805,1.61236,0.0592754,-0.0961766
0.765481,1.37628,1.62142,0.0602645,-0.0935141
0.767058,1.36396,1.63062,0.0604759,-0.0899847
0.768635,1.35164,1.63983,0.0606873,-0.0864552
0.770161,1.33906,1.64908,0.0599689,-0.0820013
0.771687,1.32647,1.65834,0.0592505,-0.0775474
0.773107,1.3139,1.66743,0.0576387,-0.0722417
0.774527,1.30134,1.67653,0.056027,-0.066936
0.775787,1.2891,1.68526,0.0535584,-0.0608511
0.777048,1.27686,1.69399,0.0510898,-0.0547662
0.778093,1.26523,1.70213,0.0478009,-0.0479747
0.779138,1.25361,1.71028,0.044512,-0.0411833
0.779914,1.2429,1.71764,0.0404393,-0.0337579
0.78069,1.2322,1.725,0.0363666,-0.0263325
0.781209,1.2222,1.73163,0.0314838,-0.0182401
0.781729,1.2122,1.73826,0.0266011,-0.0101476
0.782006,1.20271,1.74423,0.0208821,-0.00135482
0.782284,1.19321,1.7502,0.0151631,0.00743796
0.782332,1.18402,1.75557,0.00858168,0.0169642
0.78238,1.17482,1.76095,0.00200025,0.0264905
0.782214,1.16572,1.76578,-0.00546985,0.0367835
0.782047,1.15662,1.77062,-0.0129399,0.0470764
0.781678,1.14782,1.77504,-0.0210668,0.0580456
0.78131,1.13902,1.77945,-0.0291937,0.0690148
0.780754,1.13075,1.78356,-0.0377456,0.0805697
0.780198,1.12247,1.78768,-0.0462974,0.0921245
0.779468,1.11493,1.7916,-0.0550424,0.104175
0.778739,1.10739,1.79552,-0.0637873,0.116225
0.77785,1.1008,1.79936,-0.0724935,0.12868
0.77696,1.09421,1.80321,-0.0811996,0.141135
0.775953,1.08838,1.80687,-0.0897097,0.153587
0.774946,1.08255,1.81052,-0.0982197,0.166039
0.773863,1.07731,1.81387,-0.106376,0.178082
0.77278,1.07207,1.81722,-0.114533,0.190125
0.771662,1.06723,1.82016,-0.122178,0.201351
0.770545,1.06238,1.82309,-0.129824,0.212577
0.769436,1.05776,1.82548,-0.136801,0.222579
0.768326,1.05313,1.82788,-0.143779,0.23258
0.767221,1.04862,1.83001,-0.150422,0.24197
0.766116,1.0441,1.83214,-0.157065,0.25136
0.764598,1.03893,1.83407,-0.163731,0.260687
0.763081,1.03376,1.83599,-0.170396,0.270015
0.761354,1.02816,1.83808,-0.177407,0.279923
0.759627,1.02256,1.84017,-0.184418,0.289831
0.757481,1.01608,1.8426,-0.19212,0.300901
0.755334,1.00961,1.84502,-0.199822,0.311971
0.752461,1.00223,1.84828,-0.207798,0.323413
0.749588,0.994856,1.85154,-0.215774,0.334854
0.74568,0.986553,1.85616,-0.223607,0.345876
0.741437,0.97801,1.86124,-0.231301,0.356595
0.736523,0.968988,1.86726,-0.238715,0.366709
0.730861,0.95948,1.87434,-0.245745,0.37602
0.724375,0.949478,1.8826,-0.252287,0.384331
0.717125,0.939024,1.892,-0.258289,0.391595
0.709171,0.928156,1.9025,-0.263699,0.397764
0.700575,0.916916,1.91404,-0.268463,0.402793
0.691396,0.905344,1.92657,-0.272531,0.406633
0.681695,0.893479,1.94005,-0.275848,0.409238
0.671534,0.881364,1.95442,-0.278364,0.410561
0.660971,0.869037,1.96964,-0.280025,0.410555
0.650069,0.856539,1.98567,-0.280779,0.409173
0.638923,0.843918,2.00232,-0.280714,0.406604
0.62763,0.831222,2.01946,-0.279919,0.403037
0.616263,0.818488,2.03682,-0.278758,0.39897
0.604987,0.805792,2.05449,-0.276488,0.393661
0.593711,0.793097,2.07215,-0.274217,0.388352
0.582912,0.78063,2.08946,-0.271188,0.382555
0.572113,0.768164,2.10677,-0.268159,0.376758
0.562176,0.756117,2.12307,-0.264724,0.371228
0.552239,0.74407,2.13937,-0.261289,0.365698
0.54288,0.731158,2.15478,-0.256903,0.360303
0.533595,0.717708,2.17,-0.252144,0.35491
0.524456,0.703183,2.18483,-0.246636,0.349518
0.515391,0.68812,2.19947,-0.240755,0.344127
0.506473,0.671983,2.21372,-0.234126,0.338738
0.497418,0.653485,2.2277,-0.226205,0.33322
0.488089,0.630267,2.24114,-0.215699,0.327442
0.478623,0.604689,2.25432,-0.203901,0.321535
0.469156,0.57911,2.26749,-0.192103,0.315628
0.459894,0.552256,2.28057,-0.179555,0.309584
0.45104,0.522848,2.29348,-0.165509,0.303267
0.44239,0.492163,2.3063,-0.150712,0.296812
0.434286,0.461285,2.3192,-0.135709,0.290213
0.426181,0.430408,2.33211,-0.120706,0.283613
0.419168,0.399143,2.3452,-0.10529,0.276726
0.412154,0.367879,2.35829,-0.0898731,0.269838
0.406309,0.335898,2.37162,-0.0739984,0.262608
0.400464,0.303917,2.38495,-0.0581237,0.255379
0.395864,0.270887,2.39857,-0.0417464,0.247755
0.391595,0.237513,2.41228,-0.0252324,0.240019
0.387988,0.203449,2.42616,-0.00844478,0.232059
0.385061,0.168614,2.44023,0.00862747,0.223862
0.382834,0.132923,2.4545,0.0259955,0.215415
0.380958,0.0968046,2.46887,0.0435114,0.206843
0.380519,0.0594994,2.4836,0.061353,0.197911
0.380081,0.0221943,2.49833,0.0791945,0.188979
0.381119,-0.0157751,2.51337,0.0970957,0.17983
0.382157,-0.0537445,2.52841,0.114997,0.17068
0.38471,-0.0918552,2.54372,0.132692,0.161453
0.387262,-0.129966,2.55904,0.150387,0.152226
0.391367,-0.167695,2.57457,0.16761,0.143063
0.395473,-0.205424,2.59011,0.184832,0.133901
0.400987,-0.242513,2.60553,0.201436,0.124927
0.406501,-0.279601,2.62095,0.21804,0.115953
0.413281,-0.31579,2.63591,0.233878,0.107291
0.420341,-0.351688,2.65066,0.249489,0.0987397
0.427962,-0.387007,2.66502,0.264643,0.0904065
0.436109,-0.421682,2.67889,0.279304,0.0823232
0.444745,-0.455647,2.69219,0.293436,0.0745207
0.453625,-0.489257,2.7052,0.307303,0.0668586
0.46377,-0.522309,2.71788,0.320511,0.0596609
0.473914,-0.555361,2.73057,0.333719,0.0524632
0.485609,-0.588714,2.74376,0.346666,0.0456326
0.497763,-0.622358,2.75727,0.359648,0.0388694
0.510835,-0.656582,2.77145,0.372699,0.0322411
0.524897,-0.691602,2.78649,0.38592,0.0257233
0.540019,-0.727632,2.8026,0.39941,0.0192917
0.555673,-0.764168,2.81925,0.413035,0.0129032
0.572481,-0.800968,2.83733,0.426569,0.00703618
0.589336,-0.837396,2.85558,0.439922,0.00138682
0.606284,-0.873078,2.87418,0.452915,-0.00382725
0.62328,-0.908387,2.89297,0.465728,-0.00882368
0.64037,-0.942949,2.91211,0.478181,-0.0133848
0.657459,-0.977512,2.93124,0.490634,-0.017946
0.671056,-1.00207,2.94893,0.499129,-0.0193696
0.68446,-1.02616,2.96637,0.507398,-0.02053
0.69748,-1.04935,2.98332,0.515216,-0.0211638
0.709923,-1.07116,2.99953,0.522359,-0.0210079
0.721598,-1.09115,3.01475,0.5286,-0.0197989
0.732531,-1.10949,3.02882,0.533962,-0.0174697
0.742747,-1.12633,3.0416,0.538466,-0.0139531
0.752273,-1.14186,3.05291,0.542136,-0.009182
0.761135,-1.15624,3.06262,0.544992,-0.00308915
0.769283,-1.16941,3.07089,0.546891,0.00427217
0.776669,-1.18131,3.07792,0.547687,0.0128487
0.783242,-1.19186,3.08389,0.547236,0.0225871
0.788953,-1.20102,3.08898,0.545393,0.0334342
0.793752,-1.20871,3.09338,0.542013,0.0453367
0.79759,-1.21487,3.09728,0.536952,0.0582413
0.800418,-1.21944,3.10086,0.530065,0.0720948
0.802186,-1.22235,3.1043,0.521206,0.0868439
0.803019,-1.22379,3.10761,0.510586,0.102298
0.803043,-1.22393,3.11081,0.498412,0.118268
0.802382,-1.22296,3.1139,0.484893,0.134564
0.801163,-1.22106,3.11689,0.470239,0.150994
0.79951,-1.2184,3.1198,0.454657,0.167369
0.79755,-1.21516,3.12262,0.438357,0.1835
0.795435,-1.21164,3.12541,0.421697,0.199507
0.793205,-1.20769,3.12808,0.404436,0.214265
0.790976,-1.20374,3.13075,0.387174,0.229022
0.788689,-1.19956,3.13338,0.369812,0.242549
0.786403,-1.19539,3.13601,0.35245,0.256076
0.784117,-1.19121,3.1387,0.335488,0.268394
0.781832,-1.18702,3.14138,0.318526,0.280711
0.779605,-1.18303,3.14419,0.302465,0.29184
0.777378,-1.17904,3.147,0.286405,0.302969
0.775267,-1.17545,3.15003,0.271747,0.31293
0.773157,-1.17186,3.15305,0.25709,0.32289
0.771106,-1.16864,3.15634,0.243524,0.331908
0.769055,-1.16542,3.15962,0.229959,0.340925
0.767005,-1.16253,3.1632,0.217175,0.349225
0.764956,-1.15964,3.16679,0.204391,0.357525
0.762851,-1.15704,3.17071,0.192079,0.365332
0.760746,-1.15444,3.17464,0.179767,0.373139
0.758529,-1.1521,3.17896,0.167616,0.380679
0.756311,-1.14976,3.18327,0.155465,0.388218
0.754037,-1.14755,3.18778,0.143394,0.395624
0.751763,-1.14534,3.19229,0.131323,0.40303
0.749376,-1.14339,3.19718,0.119414,0.410169
0.746989,-1.14143,3.20208,0.107504,0.417307
0.744602,-1.13948,3.20698,0.0955942,0.424445
0.742216,-1.13753,3.21187,0.0836844,0.431584
